Data from paracetamol_Absorbance_14-53-53-155.txt Node
Date: Thu Feb 15 14:53:53 GMT 2018
User: darren.whitaker
Spectrometer: S03056
Trigger mode: 0
Resolution mode: 1024 pixels
Integration Time (sec): 1.000000E0
Scans to average: 1
Nonlinearity correction enabled: false
Boxcar width: 0
Baseline correction enabled: true
XAxis mode: Wavelengths
Number of Pixels in Spectrum: 1024
>>>>>Begin Spectral Data<<<<<
184.595	-0
185.045	1.36
185.495	-0
185.945	-0
186.395	-0
186.845	-0
187.295	1.32
187.745	-0
188.195	-0
188.646	-0
189.096	-0
189.546	-0
189.997	1.06
190.447	-0
190.898	-0
191.348	-0
191.799	0.81
192.249	0.98
192.7	-0
193.151	-0
193.602	-0
194.053	-0
194.504	-0
194.955	-0
195.406	0.95
195.857	-0
196.308	-0
196.759	-0
197.21	1.13
197.662	1.36
198.113	-0
198.564	-0
199.016	1.15
199.467	0.99
199.919	0.68
200.371	1
200.822	0.82
201.274	-0
201.726	-0
202.178	-0
202.63	1.07
203.082	0.87
203.534	1.19
203.986	1
204.438	1.05
204.89	-0
205.342	0.97
205.794	0.82
206.247	1.57
206.699	0.89
207.152	-0
207.604	1.14
208.057	0.91
208.509	-0
208.962	1.34
209.415	1.06
209.867	1.07
210.32	1.64
210.773	1.19
211.226	0.87
211.679	1.02
212.132	0.74
212.585	1.76
213.038	-0
213.491	1.15
213.944	1.19
214.398	0.82
214.851	0.92
215.304	1.26
215.758	1.15
216.211	0.92
216.665	1.09
217.119	1.12
217.572	1.23
218.026	1.17
218.48	1.07
218.933	0.98
219.387	1.21
219.841	1.18
220.295	1.05
220.749	1.23
221.203	1.3
221.657	1.27
222.112	0.96
222.566	1.2
223.02	1.01
223.474	1.26
223.929	1.01
224.383	1.01
224.838	0.89
225.292	1.33
225.747	1.22
226.202	0.99
226.656	1.1
227.111	1.05
227.566	1.27
228.021	1.13
228.476	1.12
228.931	1.12
229.386	1.16
229.841	1.09
230.296	1.12
230.751	1.1
231.206	1.16
231.661	1.14
232.117	1.15
232.572	1.13
233.027	1.2
233.483	1.15
233.938	1.14
234.394	1.18
234.85	1.15
235.305	1.19
235.761	1.21
236.217	1.26
236.673	1.24
237.129	1.25
237.585	1.28
238.041	1.24
238.497	1.28
238.953	1.29
239.409	1.33
239.865	1.29
240.321	1.32
240.778	1.25
241.234	1.34
241.69	1.36
242.147	1.31
242.603	1.42
243.06	1.37
243.517	1.34
243.973	1.37
244.43	1.37
244.887	1.41
245.343	1.42
245.8	1.38
246.257	1.45
246.714	1.37
247.171	1.42
247.628	1.46
248.085	1.42
248.543	1.43
249	1.48
249.457	1.39
249.914	1.4
250.372	1.43
250.829	1.45
251.287	1.46
251.744	1.46
252.202	1.44
252.659	1.48
253.117	1.43
253.575	1.46
254.033	1.42
254.491	1.46
254.948	1.46
255.406	1.5
255.864	1.42
256.322	1.42
256.78	1.5
257.239	1.45
257.697	1.42
258.155	1.5
258.613	1.42
259.072	1.45
259.53	1.43
259.988	1.45
260.447	1.43
260.906	1.44
261.364	1.45
261.823	1.44
262.281	1.46
262.74	1.42
263.199	1.41
263.658	1.43
264.117	1.41
264.576	1.46
265.035	1.41
265.494	1.41
265.953	1.39
266.412	1.42
266.871	1.41
267.33	1.42
267.79	1.46
268.249	1.39
268.708	1.37
269.168	1.4
269.627	1.39
270.087	1.4
270.546	1.39
271.006	1.33
271.466	1.42
271.926	1.4
272.385	1.37
272.845	1.41
273.305	1.37
273.765	1.36
274.225	1.37
274.685	1.32
275.145	1.4
275.605	1.35
276.065	1.36
276.526	1.35
276.986	1.36
277.446	1.35
277.907	1.39
278.367	1.4
278.828	1.39
279.288	1.39
279.749	1.35
280.209	1.35
280.67	1.35
281.131	1.38
281.592	1.38
282.052	1.38
282.513	1.33
282.974	1.35
283.435	1.37
283.896	1.38
284.357	1.35
284.818	1.42
285.28	1.37
285.741	1.38
286.202	1.37
286.663	1.37
287.125	1.38
287.586	1.37
288.048	1.39
288.509	1.35
288.971	1.35
289.432	1.38
289.894	1.39
290.356	1.38
290.818	1.38
291.279	1.37
291.741	1.43
292.203	1.4
292.665	1.36
293.127	1.4
293.589	1.4
294.051	1.37
294.513	1.36
294.976	1.4
295.438	1.39
295.9	1.41
296.363	1.39
296.825	1.37
297.287	1.37
297.75	1.41
298.212	1.4
298.675	1.36
299.138	1.39
299.6	1.38
300.063	1.36
300.526	1.36
300.989	1.38
301.452	1.37
301.914	1.37
302.377	1.34
302.84	1.36
303.304	1.37
303.767	1.42
304.23	1.36
304.693	1.36
305.156	1.34
305.62	1.37
306.083	1.37
306.546	1.36
307.01	1.38
307.473	1.36
307.937	1.38
308.4	1.33
308.864	1.35
309.328	1.36
309.792	1.32
310.255	1.36
310.719	1.36
311.183	1.36
311.647	1.35
312.111	1.37
312.575	1.36
313.039	1.38
313.503	1.35
313.967	1.37
314.432	1.36
314.896	1.36
315.36	1.37
315.825	1.36
316.289	1.37
316.753	1.38
317.218	1.37
317.683	1.37
318.147	1.38
318.612	1.36
319.076	1.39
319.541	1.38
320.006	1.37
320.471	1.36
320.936	1.38
321.401	1.37
321.866	1.36
322.331	1.36
322.796	1.36
323.261	1.37
323.726	1.37
324.191	1.4
324.656	1.39
325.122	1.39
325.587	1.36
326.053	1.37
326.518	1.4
326.983	1.37
327.449	1.39
327.915	1.38
328.38	1.39
328.846	1.4
329.312	1.39
329.777	1.39
330.243	1.38
330.709	1.39
331.175	1.39
331.641	1.38
332.107	1.41
332.573	1.4
333.039	1.39
333.505	1.39
333.972	1.39
334.438	1.41
334.904	1.4
335.37	1.38
335.837	1.39
336.303	1.4
336.77	1.4
337.236	1.41
337.703	1.39
338.169	1.41
338.636	1.4
339.103	1.4
339.569	1.41
340.036	1.42
340.503	1.43
340.97	1.4
341.437	1.39
341.904	1.39
342.371	1.4
342.838	1.39
343.305	1.42
343.772	1.4
344.24	1.41
344.707	1.42
345.174	1.45
345.641	1.41
346.109	1.42
346.576	1.42
347.044	1.41
347.511	1.42
347.979	1.41
348.447	1.42
348.914	1.4
349.382	1.4
349.85	1.4
350.318	1.42
350.785	1.41
351.253	1.42
351.721	1.41
352.189	1.41
352.657	1.43
353.125	1.43
353.594	1.43
354.062	1.41
354.53	1.41
354.998	1.4
355.466	1.44
355.935	1.42
356.403	1.41
356.872	1.42
357.34	1.43
357.809	1.41
358.277	1.42
358.746	1.42
359.215	1.41
359.683	1.41
360.152	1.42
360.621	1.41
361.09	1.41
361.559	1.43
362.028	1.42
362.497	1.42
362.966	1.43
363.435	1.43
363.904	1.41
364.373	1.41
364.842	1.42
365.312	1.43
365.781	1.38
366.25	1.4
366.72	1.4
367.189	1.42
367.658	1.43
368.128	1.42
368.598	1.4
369.067	1.44
369.537	1.42
370.007	1.43
370.476	1.42
370.946	1.43
371.416	1.42
371.886	1.42
372.356	1.42
372.826	1.43
373.296	1.43
373.766	1.41
374.236	1.44
374.706	1.41
375.176	1.45
375.647	1.42
376.117	1.41
376.587	1.42
377.058	1.43
377.528	1.42
377.998	1.4
378.469	1.41
378.94	1.42
379.41	1.41
379.881	1.41
380.351	1.41
380.822	1.43
381.293	1.41
381.764	1.42
382.235	1.41
382.706	1.45
383.177	1.42
383.648	1.43
384.119	1.41
384.59	1.42
385.061	1.44
385.532	1.4
386.003	1.42
386.474	1.42
386.946	1.4
387.417	1.4
387.888	1.42
388.36	1.41
388.831	1.43
389.303	1.39
389.774	1.41
390.246	1.42
390.718	1.42
391.189	1.42
391.661	1.42
392.133	1.43
392.605	1.42
393.077	1.42
393.549	1.42
394.021	1.42
394.493	1.39
394.965	1.42
395.437	1.41
395.909	1.41
396.381	1.41
396.853	1.43
397.325	1.42
397.798	1.42
398.27	1.42
398.743	1.41
399.215	1.44
399.687	1.42
400.16	1.41
400.633	1.41
401.105	1.43
401.578	1.4
402.051	1.41
402.523	1.4
402.996	1.41
403.469	1.4
403.942	1.39
404.415	1.41
404.888	1.41
405.361	1.38
405.834	1.39
406.307	1.39
406.78	1.4
407.253	1.39
407.726	1.39
408.199	1.39
408.673	1.4
409.146	1.44
409.619	1.41
410.093	1.42
410.566	1.42
411.04	1.4
411.513	1.42
411.987	1.41
412.461	1.39
412.934	1.39
413.408	1.41
413.882	1.41
414.356	1.41
414.829	1.42
415.303	1.42
415.777	1.41
416.251	1.4
416.725	1.41
417.199	1.4
417.673	1.39
418.148	1.39
418.622	1.41
419.096	1.4
419.57	1.41
420.045	1.42
420.519	1.4
420.993	1.41
421.468	1.38
421.942	1.4
422.417	1.41
422.891	1.4
423.366	1.39
423.841	1.41
424.315	1.4
424.79	1.4
425.265	1.39
425.74	1.39
426.215	1.41
426.689	1.41
427.164	1.4
427.639	1.39
428.114	1.39
428.589	1.4
429.065	1.42
429.54	1.38
430.015	1.37
430.49	1.4
430.965	1.39
431.441	1.4
431.916	1.39
432.392	1.35
432.867	1.33
433.342	1.32
433.818	1.31
434.294	1.28
434.769	1.28
435.245	1.28
435.721	1.27
436.196	1.27
436.672	1.28
437.148	1.29
437.624	1.3
438.1	1.3
438.576	1.33
439.052	1.36
439.528	1.36
440.004	1.37
440.48	1.37
440.956	1.36
441.432	1.39
441.908	1.36
442.385	1.37
442.861	1.37
443.337	1.36
443.814	1.37
444.29	1.37
444.767	1.38
445.243	1.36
445.72	1.36
446.196	1.38
446.673	1.38
447.15	1.38
447.626	1.37
448.103	1.35
448.58	1.36
449.057	1.37
449.534	1.37
450.01	1.37
450.487	1.37
450.964	1.37
451.442	1.37
451.919	1.37
452.396	1.37
452.873	1.36
453.35	1.35
453.827	1.36
454.305	1.35
454.782	1.35
455.259	1.37
455.737	1.38
456.214	1.37
456.692	1.35
457.169	1.4
457.647	1.37
458.124	1.36
458.602	1.37
459.08	1.4
459.557	1.35
460.035	1.36
460.513	1.35
460.991	1.37
461.469	1.37
461.947	1.37
462.425	1.38
462.903	1.38
463.381	1.36
463.859	1.37
464.337	1.37
464.815	1.36
465.293	1.36
465.772	1.37
466.25	1.38
466.728	1.36
467.207	1.36
467.685	1.38
468.164	1.38
468.642	1.39
469.121	1.35
469.599	1.36
470.078	1.39
470.556	1.37
471.035	1.36
471.514	1.35
471.993	1.39
472.471	1.38
472.95	1.37
473.429	1.38
473.908	1.38
474.387	1.39
474.866	1.37
475.345	1.36
475.824	1.37
476.303	1.38
476.782	1.38
477.262	1.34
477.741	1.37
478.22	1.4
478.7	1.35
479.179	1.35
479.658	1.35
480.138	1.35
480.617	1.36
481.097	1.34
481.576	1.34
482.056	1.35
482.535	1.34
483.015	1.35
483.495	1.33
483.975	1.31
484.454	1.32
484.934	1.31
485.414	1.29
485.894	1.3
486.374	1.28
486.854	1.28
487.334	1.28
487.814	1.27
488.294	1.27
488.774	1.25
489.254	1.29
489.735	1.25
490.215	1.26
490.695	1.25
491.176	1.27
491.656	1.27
492.136	1.29
492.617	1.29
493.097	1.29
493.578	1.31
494.058	1.32
494.539	1.31
495.02	1.32
495.5	1.31
495.981	1.32
496.462	1.33
496.943	1.33
497.423	1.32
497.904	1.34
498.385	1.33
498.866	1.33
499.347	1.36
499.828	1.34
500.309	1.35
500.79	1.36
501.271	1.35
501.753	1.34
502.234	1.37
502.715	1.36
503.196	1.36
503.678	1.35
504.159	1.38
504.64	1.38
505.122	1.35
505.603	1.36
506.085	1.34
506.566	1.39
507.048	1.39
507.53	1.39
508.011	1.41
508.493	1.38
508.975	1.38
509.457	1.37
509.938	1.38
510.42	1.37
510.902	1.38
511.384	1.36
511.866	1.39
512.348	1.39
512.83	1.36
513.312	1.36
513.794	1.42
514.276	1.39
514.759	1.39
515.241	1.39
515.723	1.4
516.206	1.38
516.688	1.39
517.17	1.39
517.653	1.4
518.135	1.37
518.618	1.36
519.1	1.38
519.583	1.41
520.065	1.37
520.548	1.4
521.031	1.43
521.513	1.42
521.996	1.4
522.479	1.41
522.962	1.41
523.445	1.39
523.927	1.42
524.41	1.4
524.893	1.36
525.376	1.33
525.859	1.4
526.343	1.38
526.826	1.38
527.309	1.4
527.792	1.4
528.275	1.41
528.759	1.42
529.242	1.42
529.725	1.39
530.209	1.39
530.692	1.36
531.175	1.38
531.659	1.38
532.142	1.34
532.626	1.4
533.11	1.4
533.593	1.35
534.077	1.35
534.561	1.36
535.044	1.4
535.528	1.38
536.012	1.35
536.496	1.36
536.98	1.32
537.464	1.33
537.948	1.32
538.432	1.28
538.916	1.25
539.4	1.23
539.884	1.18
540.368	1.12
540.852	1.1
541.336	1.05
541.821	1.04
542.305	1.01
542.789	0.99
543.274	0.97
543.758	0.95
544.243	0.95
544.727	0.96
545.211	0.98
545.696	1.01
546.181	1.02
546.665	1.04
547.15	1.06
547.635	1.11
548.119	1.13
548.604	1.15
549.089	1.2
549.574	1.21
550.059	1.26
550.543	1.27
551.028	1.3
551.513	1.31
551.998	1.33
552.483	1.32
552.968	1.31
553.454	1.34
553.939	1.36
554.424	1.39
554.909	1.37
555.394	1.39
555.88	1.42
556.365	1.43
556.85	1.42
557.336	1.38
557.821	1.44
558.307	1.5
558.792	1.48
559.278	1.47
559.763	1.45
560.249	1.45
560.735	1.47
561.22	1.46
561.706	1.43
562.192	1.47
562.677	1.49
563.163	1.45
563.649	1.47
564.135	1.46
564.621	1.47
565.107	1.48
565.593	1.45
566.079	1.49
566.565	1.47
567.051	1.48
567.537	1.52
568.023	1.49
568.51	1.47
568.996	1.49
569.482	1.47
569.968	1.47
570.455	1.48
570.941	1.45
571.428	1.48
571.914	1.47
572.4	1.45
572.887	1.47
573.374	1.46
573.86	1.46
574.347	1.45
574.833	1.45
575.32	1.44
575.807	1.43
576.294	1.44
576.78	1.43
577.267	1.4
577.754	1.42
578.241	1.42
578.728	1.4
579.215	1.41
579.702	1.41
580.189	1.41
580.676	1.41
581.163	1.4
581.65	1.39
582.137	1.4
582.625	1.4
583.112	1.4
583.599	1.38
584.086	1.39
584.574	1.38
585.061	1.38
585.548	1.37
586.036	1.38
586.523	1.38
587.011	1.39
587.498	1.39
587.986	1.38
588.474	1.39
588.961	1.41
589.449	1.41
589.937	1.39
590.424	1.4
590.912	1.42
591.4	1.41
591.888	1.43
592.376	1.42
592.864	1.44
593.352	1.43
593.84	1.45
594.328	1.46
594.816	1.46
595.304	1.47
595.792	1.47
596.28	1.47
596.768	1.48
597.256	1.48
597.745	1.47
598.233	1.48
598.721	1.47
599.209	1.48
599.698	1.47
600.186	1.48
600.675	1.48
601.163	1.49
601.652	1.49
602.14	1.49
602.629	1.52
603.117	1.51
603.606	1.5
604.095	1.48
604.583	1.5
605.072	1.51
605.561	1.48
606.05	1.51
606.539	1.48
607.028	1.47
607.516	1.41
608.005	1.37
608.494	1.3
608.983	1.27
609.472	1.23
609.961	1.2
610.451	1.18
610.94	1.18
611.429	1.18
611.918	1.18
612.407	1.18
612.897	1.2
613.386	1.22
613.875	1.26
614.365	1.3
614.854	1.33
615.343	1.36
615.833	1.38
616.322	1.39
616.812	1.4
617.301	1.41
617.791	1.41
618.281	1.45
618.77	1.44
619.26	1.46
619.75	1.44
620.24	1.45
620.729	1.44
621.219	1.44
621.709	1.44
622.199	1.48
622.689	1.46
623.179	1.49
623.669	1.48
624.159	1.48
624.649	1.51
625.139	1.54
625.629	1.5
626.119	1.52
626.609	1.53
627.099	1.53
627.59	1.53
628.08	1.52
628.57	1.49
629.061	1.5
629.551	1.53
630.041	1.51
630.532	1.51
631.022	1.53
631.513	1.55
632.003	1.52
632.494	1.57
632.984	1.57
633.475	1.58
633.966	1.64
634.456	1.63
634.947	1.67
635.438	1.68
635.929	1.65
636.419	1.66
636.91	1.68
637.401	1.7
637.892	1.66
638.383	1.66
638.874	1.73
639.365	1.66
639.856	1.62
640.347	1.64
640.838	1.69
641.329	1.69
641.82	1.66
642.311	1.66
642.803	1.64
643.294	1.76
643.785	1.67
644.277	1.66
644.768	1.74
645.259	1.65
645.751	1.69
646.242	1.65
646.734	1.69
647.225	1.67
647.717	1.65
648.208	1.66
648.7	1.65
649.191	1.7
649.683	1.63
650.175	1.68
650.666	1.69
651.158	1.63
651.65	1.63
652.142	1.65
652.633	1.62
653.125	1.6
653.617	1.58
654.109	1.55
654.601	1.58
655.093	1.57
655.585	1.56
656.077	1.58
656.569	1.58
657.061	1.59
657.553	1.6
658.046	1.61
658.538	1.6
659.03	1.69
659.522	1.67
660.015	1.68
660.507	1.68
660.999	1.73
661.492	1.75
661.984	1.69
662.476	1.72
662.969	1.74
663.461	1.71
663.954	1.72
664.446	1.69
664.939	1.74
665.432	1.77
665.924	1.72
666.417	1.71
666.91	1.7
667.402	1.74
667.895	1.73
668.388	1.71
668.881	1.68
